Time(s) Column1 Column2 Y
0 0 0.01 0
0.01 0.0001 0.0198 0.0001
0.02 0.000298 0.029401 0.000298
0.03 0.00059201 0.038804 0.00059201
0.04 0.00098005 0.0480102 0.00098005
0.05 0.00146015 0.0570206 0.00146015
0.06 0.00203036 0.0658364 0.00203036
0.07 0.00268872 0.0744587 0.00268872
0.08 0.00343331 0.0828889 0.00343331
0.09 0.0042622 0.0911281 0.0042622
0.1 0.00517348 0.0991777 0.00517348
0.11 0.00616526 0.107039 0.00616526
0.12 0.00723565 0.114713 0.00723565
0.13 0.00838278 0.122202 0.00838278
0.14 0.0096048 0.129506 0.0096048
0.15 0.0108999 0.136628 0.0108999
0.16 0.0122661 0.143569 0.0122661
0.17 0.0137018 0.150329 0.0137018
0.18 0.0152051 0.156912 0.0152051
0.19 0.0167742 0.163317 0.0167742
0.2 0.0184074 0.169548 0.0184074
0.21 0.0201029 0.175604 0.0201029
0.22 0.0218589 0.181489 0.0218589
0.23 0.0236738 0.187204 0.0236738
0.24 0.0255459 0.192749 0.0255459
0.25 0.0274733 0.198128 0.0274733
0.26 0.0294546 0.203341 0.0294546
0.27 0.031488 0.208391 0.031488
0.28 0.0335719 0.213278 0.0335719
0.29 0.0357047 0.218006 0.0357047
0.3 0.0378848 0.222574 0.0378848
0.31 0.0401105 0.226986 0.0401105
0.32 0.0423804 0.231243 0.0423804
0.33 0.0446928 0.235347 0.0446928
0.34 0.0470463 0.239299 0.0470463
0.35 0.0494393 0.243102 0.0494393
0.36 0.0518703 0.246757 0.0518703
0.37 0.0543379 0.250265 0.0543379
0.38 0.0568405 0.25363 0.0568405
0.39 0.0593768 0.256852 0.0593768
0.4 0.0619454 0.259934 0.0619454
0.41 0.0645447 0.262877 0.0645447
0.42 0.0671735 0.265683 0.0671735
0.43 0.0698303 0.268354 0.0698303
0.44 0.0725138 0.270892 0.0725138
0.45 0.0752227 0.273299 0.0752227
0.46 0.0779557 0.275576 0.0779557
0.47 0.0807115 0.277726 0.0807115
0.48 0.0834888 0.27975 0.0834888
0.49 0.0862863 0.28165 0.0862863
0.5 0.0891028 0.283429 0.0891028
0.51 0.0919371 0.285087 0.0919371
0.52 0.0947879 0.286627 0.0947879
0.53 0.0976542 0.288051 0.0976542
0.54 0.100535 0.28936 0.100535
0.55 0.103428 0.290557 0.103428
0.56 0.106334 0.291643 0.106334
0.57 0.10925 0.29262 0.10925
0.58 0.112177 0.29349 0.112177
0.59 0.115111 0.294255 0.115111
0.6 0.118054 0.294917 0.118054
0.61 0.121003 0.295477 0.121003
0.62 0.123958 0.295937 0.123958
0.63 0.126917 0.2963 0.126917
0.64 0.12988 0.296566 0.12988
0.65 0.132846 0.296739 0.132846
0.66 0.135813 0.296818 0.135813
0.67 0.138782 0.296808 0.138782
0.68 0.14175 0.296708 0.14175
0.69 0.144717 0.296521 0.144717
0.7 0.147682 0.296249 0.147682
0.71 0.150644 0.295894 0.150644
0.72 0.153603 0.295457 0.153603
0.73 0.156558 0.29494 0.156558
0.74 0.159507 0.294344 0.159507
0.75 0.162451 0.293672 0.162451
0.76 0.165387 0.292925 0.165387
0.77 0.168317 0.292105 0.168317
0.78 0.171238 0.291213 0.171238
0.79 0.17415 0.290252 0.17415
0.8 0.177052 0.289222 0.177052
0.81 0.179945 0.288126 0.179945
0.82 0.182826 0.286965 0.182826
0.83 0.185696 0.285741 0.185696
0.84 0.188553 0.284456 0.188553
0.85 0.191398 0.28311 0.191398
0.86 0.194229 0.281706 0.194229
0.87 0.197046 0.280245 0.197046
0.88 0.199848 0.278729 0.199848
0.89 0.202635 0.277159 0.202635
0.9 0.205407 0.275536 0.205407
0.91 0.208162 0.273863 0.208162
0.92 0.210901 0.272141 0.210901
0.93 0.213622 0.270371 0.213622
0.94 0.216326 0.268555 0.216326
0.95 0.219012 0.266694 0.219012
0.96 0.221679 0.26479 0.221679
0.97 0.224327 0.262844 0.224327
0.98 0.226955 0.260857 0.226955
0.99 0.229564 0.258832 0.229564
1 0.232152 0.256768 0.232152
1.01 0.23472 0.254668 0.23472
1.02 0.237266 0.252533 0.237266
1.03 0.239792 0.250365 0.239792
1.04 0.242295 0.248163 0.242295
1.05 0.244777 0.245931 0.244777
1.06 0.247236 0.243669 0.247236
1.07 0.249673 0.241379 0.249673
1.08 0.252087 0.239061 0.252087
1.09 0.254477 0.236717 0.254477
1.1 0.256844 0.234349 0.256844
1.11 0.259188 0.231956 0.259188
1.12 0.261507 0.229542 0.261507
1.13 0.263803 0.227106 0.263803
1.14 0.266074 0.224649 0.266074
1.15 0.26832 0.222174 0.26832
1.16 0.270542 0.219681 0.270542
1.17 0.272739 0.217171 0.272739
1.18 0.274911 0.214646 0.274911
1.19 0.277057 0.212105 0.277057
1.2 0.279178 0.209552 0.279178
1.21 0.281274 0.206985 0.281274
1.22 0.283344 0.204407 0.283344
1.23 0.285388 0.201819 0.285388
1.24 0.287406 0.199221 0.287406
1.25 0.289398 0.196614 0.289398
1.26 0.291364 0.194 0.291364
1.27 0.293304 0.191379 0.293304
1.28 0.295218 0.188752 0.295218
1.29 0.297105 0.186121 0.297105
1.3 0.298967 0.183485 0.298967
1.31 0.300802 0.180846 0.300802
1.32 0.30261 0.178205 0.30261
1.33 0.304392 0.175563 0.304392
1.34 0.306148 0.17292 0.306148
1.35 0.307877 0.170277 0.307877
1.36 0.30958 0.167635 0.30958
1.37 0.311256 0.164995 0.311256
1.38 0.312906 0.162358 0.312906
1.39 0.31453 0.159723 0.31453
1.4 0.316127 0.157093 0.316127
1.41 0.317698 0.154467 0.317698
1.42 0.319242 0.151847 0.319242
1.43 0.320761 0.149233 0.320761
1.44 0.322253 0.146625 0.322253
1.45 0.323719 0.144025 0.323719
1.46 0.32516 0.141433 0.32516
1.47 0.326574 0.13885 0.326574
1.48 0.327963 0.136276 0.327963
1.49 0.329325 0.133711 0.329325
1.5 0.330662 0.131157 0.330662
1.51 0.331974 0.128614 0.331974
1.52 0.33326 0.126083 0.33326
1.53 0.334521 0.123563 0.334521
1.54 0.335757 0.121056 0.335757
1.55 0.336967 0.118562 0.336967
1.56 0.338153 0.116082 0.338153
1.57 0.339314 0.113616 0.339314
1.58 0.34045 0.111164 0.34045
1.59 0.341561 0.108727 0.341561
1.6 0.342649 0.106306 0.342649
1.61 0.343712 0.1039 0.343712
1.62 0.344751 0.101511 0.344751
1.63 0.345766 0.0991384 0.345766
1.64 0.346757 0.0967826 0.346757
1.65 0.347725 0.0944443 0.347725
1.66 0.348669 0.0921236 0.348669
1.67 0.349591 0.0898211 0.349591
1.68 0.350489 0.0875369 0.350489
1.69 0.351364 0.0852715 0.351364
1.7 0.352217 0.0830252 0.352217
1.71 0.353047 0.0807982 0.353047
1.72 0.353855 0.0785908 0.353855
1.73 0.354641 0.0764033 0.354641
1.74 0.355405 0.074236 0.355405
1.75 0.356148 0.0720891 0.356148
1.76 0.356868 0.0699629 0.356868
1.77 0.357568 0.0678576 0.357568
1.78 0.358247 0.0657734 0.358247
1.79 0.358904 0.0637106 0.358904
1.8 0.359541 0.0616692 0.359541
1.81 0.360158 0.0596496 0.360158
1.82 0.360755 0.0576518 0.360755
1.83 0.361331 0.0556762 0.361331
1.84 0.361888 0.0537227 0.361888
1.85 0.362425 0.0517916 0.362425
1.86 0.362943 0.049883 0.362943
1.87 0.363442 0.0479971 0.363442
1.88 0.363922 0.0461339 0.363922
1.89 0.364383 0.0442935 0.364383
1.9 0.364826 0.0424762 0.364826
1.91 0.365251 0.0406819 0.365251
1.92 0.365658 0.0389107 0.365658
1.93 0.366047 0.0371628 0.366047
1.94 0.366418 0.0354381 0.366418
1.95 0.366773 0.0337368 0.366773
1.96 0.36711 0.0320589 0.36711
1.97 0.367431 0.0304044 0.367431
1.98 0.367735 0.0287734 0.367735
1.99 0.368023 0.0271658 0.368023
2 0.368294 0.0255819 0.368294
2.01 0.36855 0.0240214 0.36855
2.02 0.36879 0.0224845 0.36879
2.03 0.369015 0.0209711 0.369015
2.04 0.369225 0.0194812 0.369225
2.05 0.36942 0.0180148 0.36942
2.06 0.3696 0.0165719 0.3696
2.07 0.369766 0.0151525 0.369766
2.08 0.369917 0.0137565 0.369917
2.09 0.370055 0.0123838 0.370055
2.1 0.370178 0.0110345 0.370178
2.11 0.370289 0.00970848 0.370289
2.12 0.370386 0.00840565 0.370386
2.13 0.37047 0.00712596 0.37047
2.14 0.370541 0.00586934 0.370541
2.15 0.3706 0.00463572 0.3706
2.16 0.370646 0.00342501 0.370646
2.17 0.37068 0.00223712 0.37068
2.18 0.370703 0.00107196 0.370703
2.19 0.370714 -7.05611e-05 0.370714
2.2 0.370713 -0.00119056 0.370713
2.21 0.370701 -0.00228813 0.370701
2.22 0.370678 -0.0033634 0.370678
2.23 0.370644 -0.00441647 0.370644
2.24 0.3706 -0.00544748 0.3706
2.25 0.370546 -0.00645654 0.370546
2.26 0.370481 -0.00744378 0.370481
2.27 0.370407 -0.00840934 0.370407
2.28 0.370323 -0.00935336 0.370323
2.29 0.370229 -0.010276 0.370229
2.3 0.370126 -0.0111773 0.370126
2.31 0.370015 -0.0120576 0.370015
2.32 0.369894 -0.0129169 0.369894
2.33 0.369765 -0.0137554 0.369765
2.34 0.369627 -0.0145732 0.369627
2.35 0.369482 -0.0153705 0.369482
2.36 0.369328 -0.0161476 0.369328
2.37 0.369166 -0.0169045 0.369166
2.38 0.368997 -0.0176414 0.368997
2.39 0.368821 -0.0183585 0.368821
2.4 0.368637 -0.0190559 0.368637
2.41 0.368447 -0.0197339 0.368447
2.42 0.36825 -0.0203927 0.36825
2.43 0.368046 -0.0210323 0.368046
2.44 0.367835 -0.021653 0.367835
2.45 0.367619 -0.022255 0.367619
2.46 0.367396 -0.0228385 0.367396
2.47 0.367168 -0.0234036 0.367168
2.48 0.366934 -0.0239505 0.366934
2.49 0.366694 -0.0244796 0.366694
2.5 0.366449 -0.0249908 0.366449
2.51 0.3662 -0.0254845 0.3662
2.52 0.365945 -0.0259608 0.365945
2.53 0.365685 -0.0264199 0.365685
2.54 0.365421 -0.026862 0.365421
2.55 0.365152 -0.0272874 0.365152
2.56 0.364879 -0.0276962 0.364879
2.57 0.364602 -0.0280887 0.364602
2.58 0.364322 -0.028465 0.364322
2.59 0.364037 -0.0288253 0.364037
2.6 0.363749 -0.0291699 0.363749
2.61 0.363457 -0.029499 0.363457
2.62 0.363162 -0.0298127 0.363162
2.63 0.362864 -0.0301113 0.362864
2.64 0.362563 -0.030395 0.362563
2.65 0.362259 -0.030664 0.362259
2.66 0.361952 -0.0309185 0.361952
2.67 0.361643 -0.0311587 0.361643
2.68 0.361331 -0.0313848 0.361331
2.69 0.361018 -0.031597 0.361018
2.7 0.360702 -0.0317956 0.360702
2.71 0.360384 -0.0319808 0.360384
2.72 0.360064 -0.0321527 0.360064
2.73 0.359742 -0.0323115 0.359742
2.74 0.359419 -0.0324575 0.359419
2.75 0.359095 -0.032591 0.359095
2.76 0.358769 -0.032712 0.358769
2.77 0.358442 -0.0328208 0.358442
2.78 0.358113 -0.0329176 0.358113
2.79 0.357784 -0.0330027 0.357784
2.8 0.357454 -0.0330762 0.357454
2.81 0.357123 -0.0331383 0.357123
2.82 0.356792 -0.0331892 0.356792
2.83 0.35646 -0.0332292 0.35646
2.84 0.356128 -0.0332584 0.356128
2.85 0.355795 -0.0332771 0.355795
2.86 0.355462 -0.0332854 0.355462
2.87 0.35513 -0.0332835 0.35513
2.88 0.354797 -0.0332717 0.354797
2.89 0.354464 -0.0332502 0.354464
2.9 0.354132 -0.0332191 0.354132
2.91 0.353799 -0.0331787 0.353799
2.92 0.353468 -0.0331291 0.353468
2.93 0.353136 -0.0330705 0.353136
2.94 0.352806 -0.0330032 0.352806
2.95 0.352476 -0.0329273 0.352476
2.96 0.352146 -0.032843 0.352146
2.97 0.351818 -0.0327506 0.351818
2.98 0.35149 -0.0326501 0.35149
2.99 0.351164 -0.0325418 0.351164
3 0.350838 -0.0324259 0.350838
3.01 0.350514 -0.0323025 0.350514
3.02 0.350191 -0.0321719 0.350191
3.03 0.349869 -0.0320342 0.349869
3.04 0.349549 -0.0318896 0.349549
3.05 0.34923 -0.0317383 0.34923
3.06 0.348913 -0.0315804 0.348913
3.07 0.348597 -0.0314162 0.348597
3.08 0.348283 -0.0312458 0.348283
3.09 0.34797 -0.0310693 0.34797
3.1 0.34766 -0.030887 0.34766
3.11 0.347351 -0.0306991 0.347351
3.12 0.347044 -0.0305056 0.347044
3.13 0.346739 -0.0303068 0.346739
3.14 0.346436 -0.0301029 0.346436
3.15 0.346135 -0.0298939 0.346135
3.16 0.345836 -0.02968 0.345836
3.17 0.345539 -0.0294615 0.345539
3.18 0.345244 -0.0292384 0.345244
3.19 0.344952 -0.029011 0.344952
3.2 0.344662 -0.0287793 0.344662
3.21 0.344374 -0.0285436 0.344374
3.22 0.344089 -0.028304 0.344089
3.23 0.343806 -0.0280605 0.343806
3.24 0.343525 -0.0278135 0.343525
3.25 0.343247 -0.027563 0.343247
3.26 0.342971 -0.0273091 0.342971
3.27 0.342698 -0.0270521 0.342698
3.28 0.342428 -0.026792 0.342428
3.29 0.34216 -0.0265289 0.34216
3.3 0.341894 -0.0262632 0.341894
3.31 0.341632 -0.0259947 0.341632
3.32 0.341372 -0.0257238 0.341372
3.33 0.341115 -0.0254505 0.341115
3.34 0.34086 -0.0251749 0.34086
3.35 0.340608 -0.0248972 0.340608
3.36 0.340359 -0.0246175 0.340359
3.37 0.340113 -0.0243359 0.340113
3.38 0.33987 -0.0240526 0.33987
3.39 0.339629 -0.0237676 0.339629
3.4 0.339392 -0.0234812 0.339392
3.41 0.339157 -0.0231933 0.339157
3.42 0.338925 -0.0229041 0.338925
3.43 0.338696 -0.0226138 0.338696
3.44 0.33847 -0.0223224 0.33847
3.45 0.338246 -0.02203 0.338246
3.46 0.338026 -0.0217368 0.338026
3.47 0.337809 -0.0214429 0.337809
3.48 0.337594 -0.0211483 0.337594
3.49 0.337383 -0.0208531 0.337383
3.5 0.337174 -0.0205575 0.337174
3.51 0.336969 -0.0202616 0.336969
3.52 0.336766 -0.0199655 0.336766
3.53 0.336566 -0.0196691 0.336566
3.54 0.33637 -0.0193727 0.33637
3.55 0.336176 -0.0190764 0.336176
3.56 0.335985 -0.0187801 0.335985
3.57 0.335797 -0.0184841 0.335797
3.58 0.335613 -0.0181883 0.335613
3.59 0.335431 -0.0178929 0.335431
3.6 0.335252 -0.017598 0.335252
3.61 0.335076 -0.0173036 0.335076
3.62 0.334903 -0.0170098 0.334903
3.63 0.334733 -0.0167167 0.334733
3.64 0.334566 -0.0164243 0.334566
3.65 0.334401 -0.0161328 0.334401
3.66 0.33424 -0.0158422 0.33424
3.67 0.334082 -0.0155525 0.334082
3.68 0.333926 -0.0152639 0.333926
3.69 0.333773 -0.0149764 0.333773
3.7 0.333624 -0.0146901 0.333624
3.71 0.333477 -0.014405 0.333477
3.72 0.333333 -0.0141212 0.333333
3.73 0.333191 -0.0138388 0.333191
3.74 0.333053 -0.0135577 0.333053
3.75 0.332917 -0.0132782 0.332917
3.76 0.332785 -0.0130001 0.332785
3.77 0.332655 -0.0127237 0.332655
3.78 0.332527 -0.0124488 0.332527
3.79 0.332403 -0.0121757 0.332403
3.8 0.332281 -0.0119043 0.332281
3.81 0.332162 -0.0116346 0.332162
3.82 0.332046 -0.0113668 0.332046
3.83 0.331932 -0.0111008 0.331932
3.84 0.331821 -0.0108368 0.331821
3.85 0.331713 -0.0105747 0.331713
3.86 0.331607 -0.0103146 0.331607
3.87 0.331504 -0.0100565 0.331504
3.88 0.331403 -0.00980047 0.331403
3.89 0.331305 -0.00954656 0.331305
3.9 0.33121 -0.00929479 0.33121
3.91 0.331117 -0.00904519 0.331117
3.92 0.331026 -0.00879779 0.331026
3.93 0.330938 -0.00855263 0.330938
3.94 0.330853 -0.00830973 0.330853
3.95 0.33077 -0.00806913 0.33077
3.96 0.330689 -0.00783084 0.330689
3.97 0.330611 -0.0075949 0.330611
3.98 0.330535 -0.00736132 0.330535
3.99 0.330461 -0.00713015 0.330461
4 0.33039 -0.00690138 0.33039
4.01 0.330321 -0.00667505 0.330321
4.02 0.330254 -0.00645118 0.330254
4.03 0.33019 -0.00622978 0.33019
4.04 0.330127 -0.00601088 0.330127
4.05 0.330067 -0.00579448 0.330067
4.06 0.330009 -0.00558061 0.330009
4.07 0.329954 -0.00536928 0.329954
4.08 0.3299 -0.0051605 0.3299
4.09 0.329848 -0.00495429 0.329848
4.1 0.329799 -0.00475065 0.329799
4.11 0.329751 -0.0045496 0.329751
4.12 0.329706 -0.00435114 0.329706
4.13 0.329662 -0.00415529 0.329662
4.14 0.329621 -0.00396205 0.329621
4.15 0.329581 -0.00377143 0.329581
4.16 0.329543 -0.00358343 0.329543
4.17 0.329507 -0.00339806 0.329507
4.18 0.329473 -0.00321532 0.329473
4.19 0.329441 -0.00303522 0.329441
4.2 0.329411 -0.00285776 0.329411
4.21 0.329382 -0.00268293 0.329382
4.22 0.329356 -0.00251075 0.329356
4.23 0.32933 -0.0023412 0.32933
4.24 0.329307 -0.00217429 0.329307
4.25 0.329285 -0.00201001 0.329285
4.26 0.329265 -0.00184837 0.329265
4.27 0.329247 -0.00168936 0.329247
4.28 0.32923 -0.00153298 0.32923
4.29 0.329215 -0.00137921 0.329215
4.3 0.329201 -0.00122806 0.329201
4.31 0.329188 -0.00107952 0.329188
4.32 0.329178 -0.000933586 0.329178
4.33 0.329168 -0.000790244 0.329168
4.34 0.32916 -0.000649488 0.32916
4.35 0.329154 -0.00051131 0.329154
4.36 0.329149 -0.000375701 0.329149
4.37 0.329145 -0.000242651 0.329145
4.38 0.329143 -0.000112149 0.329143
4.39 0.329141 1.58156e-05 0.329141
4.4 0.329142 0.000141255 0.329142
4.41 0.329143 0.00026418 0.329143
4.42 0.329146 0.000384605 0.329146
4.43 0.32915 0.000502542 0.32915
4.44 0.329155 0.000618004 0.329155
4.45 0.329161 0.000731007 0.329161
4.46 0.329168 0.000841564 0.329168
4.47 0.329176 0.000949691 0.329176
4.48 0.329186 0.0010554 0.329186
4.49 0.329197 0.00115872 0.329197
4.5 0.329208 0.00125965 0.329208
4.51 0.329221 0.00135821 0.329221
4.52 0.329234 0.00145442 0.329234
4.53 0.329249 0.00154831 0.329249
4.54 0.329264 0.00163987 0.329264
4.55 0.329281 0.00172915 0.329281
4.56 0.329298 0.00181614 0.329298
4.57 0.329316 0.00190088 0.329316
4.58 0.329335 0.00198338 0.329335
4.59 0.329355 0.00206365 0.329355
4.6 0.329376 0.00214173 0.329376
4.61 0.329397 0.00221763 0.329397
4.62 0.329419 0.00229136 0.329419
4.63 0.329442 0.00236296 0.329442
4.64 0.329466 0.00243243 0.329466
4.65 0.32949 0.00249981 0.32949
4.66 0.329515 0.00256511 0.329515
4.67 0.329541 0.00262836 0.329541
4.68 0.329567 0.00268957 0.329567
4.69 0.329594 0.00274876 0.329594
4.7 0.329621 0.00280597 0.329621
4.71 0.329649 0.00286121 0.329649
4.72 0.329678 0.0029145 0.329678
4.73 0.329707 0.00296587 0.329707
4.74 0.329737 0.00301533 0.329737
4.75 0.329767 0.00306292 0.329767
4.76 0.329798 0.00310865 0.329798
4.77 0.329829 0.00315254 0.329829
4.78 0.32986 0.00319463 0.32986
4.79 0.329892 0.00323493 0.329892
4.8 0.329925 0.00327346 0.329925
4.81 0.329957 0.00331025 0.329957
4.82 0.32999 0.00334533 0.32999
4.83 0.330024 0.00337871 0.330024
4.84 0.330058 0.00341042 0.330058
4.85 0.330092 0.00344048 0.330092
4.86 0.330126 0.00346892 0.330126
4.87 0.330161 0.00349575 0.330161
4.88 0.330196 0.00352101 0.330196
4.89 0.330231 0.00354472 0.330231
4.9 0.330266 0.00356689 0.330266
4.91 0.330302 0.00358756 0.330302
4.92 0.330338 0.00360674 0.330338
4.93 0.330374 0.00362447 0.330374
4.94 0.33041 0.00364076 0.33041
4.95 0.330447 0.00365563 0.330447
4.96 0.330483 0.00366911 0.330483
4.97 0.33052 0.00368123 0.33052
4.98 0.330557 0.00369201 0.330557
4.99 0.330594 0.00370146 0.330594
5 0.330631 0.00370962 0.330631
5.01 0.330668 0.00371651 0.330668
5.02 0.330705 0.00372214 0.330705
5.03 0.330742 0.00372655 0.330742
5.04 0.330779 0.00372975 0.330779
5.05 0.330817 0.00373177 0.330817
5.06 0.330854 0.00373263 0.330854
5.07 0.330891 0.00373236 0.330891
5.08 0.330929 0.00373097 0.330929
5.09 0.330966 0.00372848 0.330966
5.1 0.331003 0.00372493 0.331003
5.11 0.331041 0.00372033 0.331041
5.12 0.331078 0.00371471 0.331078
5.13 0.331115 0.00370808 0.331115
5.14 0.331152 0.00370047 0.331152
5.15 0.331189 0.0036919 0.331189
5.16 0.331226 0.00368239 0.331226
5.17 0.331263 0.00367196 0.331263
5.18 0.3313 0.00366064 0.3313
5.19 0.331336 0.00364844 0.331336
5.2 0.331373 0.00363539 0.331373
5.21 0.331409 0.00362151 0.331409
5.22 0.331445 0.00360681 0.331445
5.23 0.331481 0.00359132 0.331481
5.24 0.331517 0.00357505 0.331517
5.25 0.331553 0.00355804 0.331553
5.26 0.331588 0.00354029 0.331588
5.27 0.331624 0.00352183 0.331624
5.28 0.331659 0.00350268 0.331659
5.29 0.331694 0.00348285 0.331694
5.3 0.331729 0.00346237 0.331729
5.31 0.331764 0.00344125 0.331764
5.32 0.331798 0.00341952 0.331798
5.33 0.331832 0.00339719 0.331832
5.34 0.331866 0.00337428 0.331866
5.35 0.3319 0.00335081 0.3319
5.36 0.331933 0.0033268 0.331933
5.37 0.331967 0.00330226 0.331967
5.38 0.332 0.00327722 0.332
5.39 0.332032 0.00325168 0.332032
5.4 0.332065 0.00322567 0.332065
5.41 0.332097 0.00319921 0.332097
5.42 0.332129 0.00317231 0.332129
5.43 0.332161 0.00314499 0.332161
5.44 0.332192 0.00311726 0.332192
5.45 0.332224 0.00308914 0.332224
5.46 0.332254 0.00306065 0.332254
5.47 0.332285 0.0030318 0.332285
5.48 0.332315 0.00300262 0.332315
5.49 0.332345 0.0029731 0.332345
5.5 0.332375 0.00294328 0.332375
5.51 0.332405 0.00291316 0.332405
5.52 0.332434 0.00288276 0.332434
5.53 0.332463 0.00285209 0.332463
5.54 0.332491 0.00282117 0.332491
5.55 0.332519 0.00279002 0.332519
5.56 0.332547 0.00275864 0.332547
5.57 0.332575 0.00272705 0.332575
5.58 0.332602 0.00269527 0.332602
5.59 0.332629 0.0026633 0.332629
5.6 0.332656 0.00263116 0.332656
5.61 0.332682 0.00259887 0.332682
5.62 0.332708 0.00256644 0.332708
5.63 0.332734 0.00253387 0.332734
5.64 0.332759 0.00250119 0.332759
5.65 0.332784 0.00246839 0.332784
5.66 0.332809 0.00243551 0.332809
5.67 0.332833 0.00240254 0.332833
5.68 0.332857 0.0023695 0.332857
5.69 0.332881 0.0023364 0.332881
5.7 0.332904 0.00230325 0.332904
5.71 0.332927 0.00227006 0.332927
5.72 0.33295 0.00223685 0.33295
5.73 0.332972 0.00220362 0.332972
5.74 0.332994 0.00217038 0.332994
5.75 0.333016 0.00213715 0.333016
5.76 0.333037 0.00210393 0.333037
5.77 0.333058 0.00207073 0.333058
5.78 0.333079 0.00203757 0.333079
5.79 0.333099 0.00200445 0.333099
5.8 0.333119 0.00197138 0.333119
5.81 0.333139 0.00193837 0.333139
5.82 0.333159 0.00190542 0.333159
5.83 0.333178 0.00187256 0.333178
5.84 0.333196 0.00183978 0.333196
5.85 0.333215 0.0018071 0.333215
5.86 0.333233 0.00177451 0.333233
5.87 0.333251 0.00174204 0.333251
5.88 0.333268 0.00170968 0.333268
5.89 0.333285 0.00167745 0.333285
5.9 0.333302 0.00164535 0.333302
5.91 0.333318 0.00161339 0.333318
5.92 0.333334 0.00158157 0.333334
5.93 0.33335 0.00154991 0.33335
5.94 0.333366 0.0015184 0.333366
5.95 0.333381 0.00148706 0.333381
5.96 0.333396 0.0014559 0.333396
5.97 0.33341 0.0014249 0.33341
5.98 0.333425 0.0013941 0.333425
5.99 0.333439 0.00136348 0.333439
6 0.333452 0.00133305 0.333452
